num crossings	time (s)	maj axis (mm)	min axis (mm)	theta (rad )	slope (V/s)
2991	3841.703669	69.114331	-14.694064	1.528251	59.200327
2993	3843.771969	69.115135	-14.719045	1.526892	59.865016
2995	3845.839961	68.914832	-14.676086	1.525027	59.133165
2997	3847.908292	68.792194	-14.698324	1.524151	58.409180
3001	3852.045788	68.630792	-14.679927	1.520621	60.295282
3003	3854.114736	68.570239	-14.682766	1.518839	59.067337
3005	3856.182991	68.499507	-14.692741	1.516895	57.487110
3007	3858.250762	68.475820	-14.714827	1.515727	57.819727
3009	3860.318192	68.501185	-14.774558	1.512732	59.209213
3011	3862.385852	68.238844	-14.736682	1.510951	57.091266
3015	3866.519743	68.036909	-14.811138	1.507642	56.029874
3017	3868.587222	67.976311	-14.814486	1.503549	56.706263
3019	3870.654644	67.867460	-14.791637	1.502554	55.581152
3021	3872.722183	67.852808	-14.834832	1.500715	54.619703
3023	3874.789956	67.581237	-14.816025	1.499709	58.331562
3025	3876.858541	67.545896	-14.814970	1.497855	53.858666
3027	3878.926313	67.431875	-14.822978	1.495937	55.050369
3029	3880.994565	67.271751	-14.842751	1.492751	54.436291
3033	3885.132252	67.162063	-14.877829	1.488963	52.568455
3035	3887.200708	67.049441	-14.868966	1.486648	55.303860
3037	3889.268327	66.889357	-14.876405	1.483070	56.211019
3039	3891.336184	66.791799	-14.851298	1.480963	55.047208
3041	3893.403504	66.611608	-14.828870	1.479306	55.334395
3045	3897.537388	66.472353	-14.903014	1.476108	54.853814
3047	3899.604530	66.572549	-14.934149	1.475633	55.126635
3049	3901.671945	66.401873	-14.909990	1.474828	54.937055
3051	3903.739358	66.353579	-14.939861	1.472238	51.809402
3053	3905.806751	66.183591	-14.949124	1.469644	55.709608
3055	3907.874440	66.106210	-14.964010	1.468135	54.658444
3057	3909.942936	65.895529	-14.901717	1.465019	53.915470
3059	3912.010720	65.814002	-14.907195	1.463042	52.137790
3063	3916.147053	65.544269	-14.955821	1.460399	53.465891
3065	3918.216250	65.537249	-14.957027	1.459822	53.359473
3067	3920.284545	65.519225	-14.962132	1.458100	52.741126
3069	3922.353030	65.455763	-14.960068	1.456581	53.182939
3071	3924.421063	65.203162	-14.923297	1.453670	51.983042
3073	3926.488944	65.432034	-15.021728	1.451760	51.827044
3077	3930.623765	65.147374	-15.052813	1.447435	52.076253
3079	3932.691442	65.034371	-15.011185	1.447393	50.884906
3081	3934.758312	65.026209	-15.023322	1.444375	49.061177
3083	3936.825730	64.776601	-15.027284	1.442712	50.702885
3085	3938.893741	64.527855	-14.985413	1.440815	49.468618
3087	3940.960891	64.533245	-15.052476	1.439114	49.766572
3091	3945.096738	64.388880	-15.098161	1.436363	49.599252
3093	3947.165535	64.312988	-15.098449	1.432590	49.268892
3095	3949.234107	64.181387	-15.093362	1.431637	47.110807
3097	3951.301840	64.151460	-15.112573	1.429156	48.182068
3099	3953.370237	64.017258	-15.127030	1.425810	48.025277
3101	3955.438773	63.865611	-15.105770	1.422206	49.015696
3105	3959.573942	63.648335	-15.153894	1.419750	50.214232
3107	3961.640640	63.618339	-15.139063	1.418756	50.135837
3109	3963.708111	63.573844	-15.159839	1.417521	48.344371
3111	3965.774847	63.298499	-15.159848	1.415825	49.216575
3113	3967.842276	63.373424	-15.181160	1.413942	48.542723
3115	3969.909550	63.235197	-15.178320	1.412569	50.267129
3119	3974.045014	62.838190	-15.178645	1.407087	48.158034
3121	3976.112549	62.976320	-15.209871	1.406870	47.497174
3123	3978.180796	62.865531	-15.218635	1.404653	49.161764
3125	3980.249200	62.671728	-15.208253	1.401783	47.636984
3127	3982.317413	62.854963	-15.242008	1.400492	46.958026
3129	3984.385697	62.615869	-15.221601	1.399755	47.567314
3133	3988.522858	62.339600	-15.264903	1.396138	46.453584
3135	3990.590802	62.427167	-15.264299	1.393692	45.896423
3137	3992.658585	62.198728	-15.219011	1.392898	47.249413
3139	3994.726321	62.108630	-15.270116	1.389300	46.304019
3141	3996.793738	62.066533	-15.267208	1.388597	45.439045
3143	3998.860911	61.919123	-15.231910	1.387119	43.808564
3145	4000.928356	61.918673	-15.300145	1.385774	45.902992
3149	4005.063387	61.546906	-15.305242	1.380153	45.067425
3151	4007.131041	61.377380	-15.317032	1.378885	45.025880
3153	4009.199315	61.570920	-15.332867	1.377974	45.245714
3155	4011.267603	61.220445	-15.317347	1.375299	44.035256
3157	4013.335490	61.141089	-15.311650	1.373779	44.372551
3159	4015.404191	61.013031	-15.329832	1.371289	44.596856
3163	4019.540031	61.087919	-15.382366	1.366950	44.155621
3165	4021.607654	60.896092	-15.391747	1.365481	42.789618
3167	4023.675099	60.818421	-15.396722	1.364802	42.637177
3169	4025.742659	60.568375	-15.378767	1.360917	44.721804
3171	4027.809437	60.633036	-15.411732	1.361094	44.068099
3175	4031.943817	60.353442	-15.446264	1.357438	44.188667
3177	4034.011167	60.220819	-15.439649	1.354808	44.179095
3179	4036.078024	60.137620	-15.454614	1.354357	43.956118
3181	4038.146227	60.132870	-15.467656	1.351476	43.238682
3183	4040.214270	59.900423	-15.441205	1.349614	43.520918
3187	4044.350386	59.805299	-15.482972	1.347366	42.693027
3189	4046.417881	59.741400	-15.473510	1.345578	43.269850
3191	4048.486384	59.555516	-15.463522	1.344063	42.170847
3193	4050.554719	59.488581	-15.474097	1.341578	40.936868
3195	4052.622503	59.464643	-15.479516	1.339001	41.666637
3199	4056.759219	59.181138	-15.508391	1.337212	42.471541
3201	4058.827438	59.160722	-15.493088	1.335613	39.300979
3203	4060.894748	59.183163	-15.517543	1.333198	40.680098
3205	4062.961966	59.174725	-15.539602	1.329785	39.675361
3207	4065.029677	58.861767	-15.549304	1.325784	38.805931
3211	4069.164383	58.707089	-15.557553	1.324218	41.214302
3213	4071.232447	58.662639	-15.561080	1.323484	40.555424
3215	4073.300122	58.388900	-15.555989	1.320993	37.851395
3217	4075.368265	58.615618	-15.607788	1.318448	38.498829
3219	4077.436294	58.401956	-15.607833	1.318758	37.844752
3221	4079.504608	58.175107	-15.620123	1.314121	39.346258
3225	4083.640488	57.989114	-15.648099	1.312027	38.873528
3227	4085.707540	57.878799	-15.640395	1.309744	40.298489
3229	4087.775615	57.790351	-15.655828	1.308594	39.505703
3231	4089.842589	57.745691	-15.660234	1.307119	38.720247
3233	4091.909580	57.675185	-15.646740	1.304651	41.200391
3237	4096.043506	57.380788	-15.689014	1.302376	38.365134
3239	4098.110662	57.453679	-15.693714	1.301074	37.521398
3241	4100.178489	57.385034	-15.705588	1.297836	39.297037
3243	4102.246344	57.299884	-15.705402	1.296034	38.398178
3245	4104.313776	56.957810	-15.703674	1.295664	38.672596
3249	4108.449920	56.870091	-15.742410	1.292329	38.879449
3251	4110.517785	56.875711	-15.718605	1.289385	38.115971
3253	4112.585896	56.685121	-15.730397	1.288684	37.354122
3255	4114.654121	56.551027	-15.741612	1.286054	38.718018
3257	4116.722913	56.561337	-15.742763	1.285497	37.082394
3261	4120.858991	56.360907	-15.802821	1.282945	36.780596
3263	4122.926342	56.399272	-15.771492	1.280673	38.367359
3265	4124.994123	56.165690	-15.776805	1.278846	37.083351
3267	4127.062178	56.211464	-15.795872	1.277209	35.233193
3269	4129.129929	56.119405	-15.796866	1.275230	35.925622
3273	4133.264770	55.915393	-15.819738	1.269072	34.686788
3275	4135.332314	55.711221	-15.834739	1.268757	35.188946
3277	4137.400150	55.717162	-15.869367	1.264824	35.281250
3279	4139.467823	55.504184	-15.874823	1.263980	36.012912
3281	4141.535431	55.557648	-15.868799	1.261838	33.864478
3285	4145.671252	55.182125	-15.893804	1.259446	35.091599
3287	4147.739776	55.330158	-15.902734	1.256979	33.933196
